DATE: 2018/06/07
TIME: 07:10:26
Frequency(Hz),	I(V),	Q(V)
355532798.00,-0.228564,-0.288697
355532898.00,-0.228525,-0.288891
355532999.00,-0.228642,-0.288990
355533099.00,-0.228768,-0.288888
355533200.00,-0.228511,-0.288852
355533300.00,-0.228594,-0.289045
355533401.00,-0.229304,-0.288245
355533501.00,-0.228986,-0.288333
355533602.00,-0.229112,-0.288357
355533702.00,-0.229210,-0.288110
355533803.00,-0.229220,-0.287699
355533903.00,-0.229683,-0.288489
355534004.00,-0.229969,-0.287957
355534104.00,-0.230395,-0.288340
355534205.00,-0.230933,-0.287886
355534305.00,-0.230314,-0.288007
355534406.00,-0.230183,-0.287762
355534506.00,-0.230109,-0.288019
355534607.00,-0.230848,-0.287641
355534707.00,-0.231196,-0.288233
355534808.00,-0.231062,-0.287705
355534908.00,-0.231352,-0.287538
355535009.00,-0.231364,-0.287165
355535109.00,-0.231290,-0.287400
355535210.00,-0.231845,-0.287077
355535310.00,-0.231620,-0.287167
355535411.00,-0.232172,-0.287186
355535511.00,-0.232322,-0.287387
355535612.00,-0.232363,-0.287299
355535712.00,-0.232184,-0.287051
355535813.00,-0.232928,-0.286339
355535913.00,-0.232935,-0.286350
355536014.00,-0.233345,-0.286254
355536114.00,-0.233289,-0.285828
355536215.00,-0.233619,-0.285652
355536315.00,-0.233711,-0.285687
355536416.00,-0.234118,-0.285746
355536516.00,-0.234297,-0.285410
355536617.00,-0.233798,-0.285492
355536717.00,-0.234347,-0.285426
355536818.00,-0.234208,-0.285409
355536918.00,-0.234644,-0.285414
355537019.00,-0.235282,-0.284658
355537119.00,-0.235337,-0.284358
355537220.00,-0.235901,-0.284655
355537320.00,-0.235734,-0.284431
355537421.00,-0.235639,-0.283931
355537521.00,-0.236457,-0.283368
355537622.00,-0.236592,-0.283284
355537722.00,-0.236765,-0.283720
355537823.00,-0.237296,-0.283398
355537923.00,-0.237861,-0.282688
355538024.00,-0.237889,-0.282306
355538124.00,-0.237805,-0.282078
355538225.00,-0.238766,-0.281972
355538325.00,-0.238942,-0.281383
355538426.00,-0.239122,-0.281132
355538526.00,-0.238985,-0.280575
355538627.00,-0.239082,-0.280718
355538727.00,-0.239621,-0.280721
355538828.00,-0.239579,-0.280173
355538928.00,-0.240100,-0.279822
355539029.00,-0.240310,-0.279312
355539129.00,-0.240556,-0.278633
355539230.00,-0.240867,-0.278841
355539330.00,-0.241673,-0.278453
355539431.00,-0.241847,-0.278208
355539531.00,-0.242819,-0.277943
355539632.00,-0.243068,-0.277125
355539732.00,-0.243678,-0.276920
355539833.00,-0.243723,-0.276162
355539933.00,-0.243709,-0.275030
355540034.00,-0.244455,-0.274896
355540134.00,-0.245364,-0.274181
355540235.00,-0.244739,-0.273637
355540335.00,-0.245889,-0.273017
355540436.00,-0.246001,-0.272368
355540536.00,-0.246817,-0.271464
355540637.00,-0.246868,-0.271186
355540737.00,-0.247033,-0.270401
355540838.00,-0.247798,-0.269326
355540938.00,-0.248590,-0.268858
355541039.00,-0.248480,-0.267601
355541139.00,-0.248829,-0.266510
355541240.00,-0.249794,-0.265472
355541340.00,-0.249941,-0.264333
355541441.00,-0.250029,-0.264011
355541541.00,-0.250201,-0.262203
355541642.00,-0.250764,-0.261186
355541742.00,-0.251383,-0.260312
355541843.00,-0.251512,-0.258574
355541943.00,-0.251840,-0.256936
355542044.00,-0.252329,-0.256261
355542144.00,-0.252304,-0.254616
355542245.00,-0.252226,-0.252684
355542345.00,-0.252412,-0.251158
355542446.00,-0.252605,-0.249741
355542546.00,-0.252138,-0.247843
355542647.00,-0.252254,-0.245846
355542747.00,-0.251314,-0.243964
355542848.00,-0.251145,-0.241559
355542948.00,-0.250674,-0.240096
355543049.00,-0.250076,-0.237599
355543149.00,-0.249089,-0.235780
355543250.00,-0.248053,-0.233192
355543350.00,-0.247148,-0.230684
355543451.00,-0.245336,-0.228453
355543551.00,-0.243229,-0.225718
355543652.00,-0.240937,-0.223213
355543752.00,-0.238759,-0.220520
355543853.00,-0.236335,-0.219068
355543953.00,-0.233457,-0.216984
355544054.00,-0.230033,-0.215196
355544154.00,-0.226953,-0.213607
355544255.00,-0.222887,-0.211553
355544355.00,-0.219408,-0.211344
355544456.00,-0.214973,-0.210704
355544556.00,-0.210633,-0.210326
355544657.00,-0.206158,-0.210183
355544757.00,-0.202267,-0.210502
355544858.00,-0.198460,-0.211600
355544958.00,-0.193921,-0.213212
355545059.00,-0.190127,-0.214647
355545159.00,-0.186560,-0.216345
355545260.00,-0.182656,-0.218691
355545360.00,-0.179748,-0.221072
355545461.00,-0.177484,-0.223450
355545561.00,-0.174460,-0.226109
355545662.00,-0.172346,-0.229416
355545762.00,-0.171242,-0.231866
355545863.00,-0.169662,-0.235393
355545963.00,-0.168121,-0.238552
355546064.00,-0.167290,-0.241221
355546164.00,-0.166420,-0.243665
355546265.00,-0.165816,-0.246912
355546365.00,-0.165641,-0.249066
355546466.00,-0.165065,-0.251866
355546566.00,-0.165140,-0.254394
355546667.00,-0.165444,-0.256170
355546767.00,-0.165742,-0.258518
355546868.00,-0.165689,-0.260572
355546968.00,-0.166045,-0.262699
355547069.00,-0.166285,-0.264296
355547169.00,-0.166686,-0.265990
355547270.00,-0.167580,-0.267406
355547370.00,-0.168193,-0.268603
355547471.00,-0.168690,-0.269963
355547571.00,-0.169057,-0.271174
355547672.00,-0.169703,-0.272317
355547772.00,-0.169827,-0.274029
355547873.00,-0.170904,-0.274869
355547973.00,-0.171286,-0.276085
355548074.00,-0.172080,-0.276919
355548174.00,-0.172830,-0.277673
355548275.00,-0.173740,-0.278664
355548375.00,-0.173840,-0.279357
355548476.00,-0.174786,-0.280297
355548576.00,-0.175186,-0.280964
355548677.00,-0.175902,-0.281578
355548777.00,-0.176046,-0.282159
355548878.00,-0.176666,-0.282631
355548978.00,-0.177459,-0.283264
355549079.00,-0.177517,-0.283637
355549179.00,-0.178173,-0.283926
355549280.00,-0.178934,-0.284588
355549380.00,-0.179763,-0.285125
355549481.00,-0.180408,-0.285413
355549581.00,-0.180535,-0.285714
355549682.00,-0.180890,-0.286258
355549782.00,-0.181738,-0.286642
355549883.00,-0.182263,-0.287242
355549983.00,-0.182457,-0.287483
355550084.00,-0.183182,-0.288163
355550184.00,-0.183376,-0.288644
355550285.00,-0.184381,-0.288815
355550385.00,-0.184656,-0.288853
355550486.00,-0.185136,-0.289317
355550586.00,-0.185537,-0.289616
355550687.00,-0.186009,-0.289793
355550787.00,-0.186151,-0.289767
355550888.00,-0.186655,-0.290240
355550988.00,-0.187112,-0.289838
355551089.00,-0.187130,-0.289853
355551189.00,-0.187523,-0.290190
355551290.00,-0.187931,-0.290458
355551390.00,-0.188648,-0.290760
355551491.00,-0.188787,-0.290459
355551591.00,-0.189176,-0.291054
355551692.00,-0.188813,-0.291288
355551792.00,-0.189256,-0.291041
355551893.00,-0.189594,-0.291562
355551993.00,-0.189903,-0.291259
355552094.00,-0.190401,-0.291583
355552194.00,-0.190151,-0.291696
355552295.00,-0.190776,-0.291571
355552395.00,-0.190878,-0.291622
355552496.00,-0.191157,-0.291758
355552596.00,-0.191796,-0.291778
355552697.00,-0.191783,-0.291509
355552798.00,-0.191857,-0.291870
